# TV + EV - Bias [kV] Yield [a.u.] Yield Error [a.u.]
1.780861590921166453e+03 6.442266563522275336e-01 1.125211639986608073e-02
1.780862145866055016e+03 6.565657888149193377e-01 1.136921109981387998e-02
1.780914664996055762e+03 6.738740687293527376e-01 1.151963562025518084e-02
1.780955579129833495e+03 7.075199136508740771e-01 1.180512265902317580e-02
1.780959729951833424e+03 7.205861938450313087e-01 1.192069744500206738e-02
1.781012466299833932e+03 7.523648470490538198e-01 1.217935565455552545e-02
1.781057145451033193e+03 7.656452218426501588e-01 1.228536222743721769e-02
1.781058959972500134e+03 7.865857706451757636e-01 1.246352624512153326e-02
1.781109197973166147e+03 8.355874578988420343e-01 1.282789500892827714e-02
1.781162761820755577e+03 8.647460880482334966e-01 1.307223809352978799e-02
1.781208857551166375e+03 8.886124667079895456e-01 1.324076906231835653e-02
1.781264456121677540e+03 9.554768012504533115e-01 1.375249505756043732e-02
1.781308302877611368e+03 1.001717179658102586e+00 1.404199767019965843e-02
1.781359815051422629e+03 1.065290085636513950e+00 1.451828640534906685e-02
1.781415477105866330e+03 1.092398997295431773e+00 1.469654171338976266e-02
1.781466883128811560e+03 1.202616106933587004e+00 1.541562162818572654e-02
1.781513373522277561e+03 1.271093720413049244e+00 1.586637508137037772e-02
1.781560110090276567e+03 1.327583546417275384e+00 1.621538451655779936e-02
1.781609551367422000e+03 1.479656511430873955e+00 1.713134636839944505e-02
1.781663075462310644e+03 1.552799444158082798e+00 1.755949373348133363e-02
1.781709797341610511e+03 1.732501976945191924e+00 1.857116921139639887e-02
1.781758344593388983e+03 1.867417047057941426e+00 1.929689475292479736e-02
1.781809653152944520e+03 2.033353813136036692e+00 2.013320282078898127e-02
1.781860820057389446e+03 2.252559609148137465e+00 2.122130783771145404e-02
1.781910836626500668e+03 2.499756060250127199e+00 2.237371721557588830e-02
1.781960041720722074e+03 2.758514848112238571e+00 2.357016366024738963e-02
1.781966236528555783e+03 2.954050920497313548e+00 2.443033592156715686e-02
1.782011944993833140e+03 3.154432269964920987e+00 2.522335385420580028e-02
1.782058263503644184e+03 3.542435446749841343e+00 2.683586210011732615e-02
1.782060006308111269e+03 3.816033537828335653e+00 2.791082539782320515e-02
1.782109019046277808e+03 3.939452073601450000e+00 2.828143094321036027e-02
1.782160427516588697e+03 4.524101981788551718e+00 3.047034240799670682e-02
1.782162216060366518e+03 4.811431990468741482e+00 3.149979116815661978e-02
1.782213937863422188e+03 5.118033613453649266e+00 3.244334205907466878e-02
1.782258009130055143e+03 5.662941097161079185e+00 3.427054049463466173e-02
1.782260645507388290e+03 5.975220311610019763e+00 3.531863691040911662e-02
1.782359312799921781e+03 6.789745437931889782e+00 3.776921624745380873e-02
1.782363527455389203e+03 6.912079952961111218e+00 3.807976191437641850e-02
1.782408332558144593e+03 7.309728449253325877e+00 3.936110106461420538e-02
1.782459937364588768e+03 7.763780430346730377e+00 4.070668850405557287e-02
1.782465743462978480e+03 7.808435746694968316e+00 4.072753300097888690e-02
1.782510964488722720e+03 8.234558662858681544e+00 4.212946165596649639e-02
1.782561508898944567e+03 8.606218935052305952e+00 4.305639774389714153e-02
1.782561736775923009e+03 8.485122434001784342e+00 4.294407066077973040e-02
1.782660203248811513e+03 8.761687396428223806e+00 4.352428052910446710e-02
1.782759506443167993e+03 8.964367168306386802e+00 4.434275076140626465e-02
1.782960916212054826e+03 9.247182838550266126e+00 4.493107901606371857e-02
1.783061049693478253e+03 9.268242277213422753e+00 4.515992341172485325e-02
1.783160791397256162e+03 9.427091035994664026e+00 4.562569963305199150e-02
1.783263655829478012e+03 9.508455714364659528e+00 4.580061957453698124e-02
1.783310103435223482e+03 9.367525591299383336e+00 4.529711004416960007e-02
1.783410903454944673e+03 9.516542976235733420e+00 4.597792985566055007e-02
1.783514102128500099e+03 9.529151639909246185e+00 4.587689687210529110e-02
1.783614118191389707e+03 9.434347023888660644e+00 4.537159747431382395e-02
1.783712274527833642e+03 9.614552576523134775e+00 4.620992735502616605e-02
