# TV + EV - Bias [kV] Yield [a.u.] Yield Error [a.u.]
9.815920635484224022e+02 6.078166956648031749e-02 3.172777325067958985e-03
9.816439591338555601e+02 6.862048125842233615e-02 3.372512663010749420e-03
9.816967549076443902e+02 6.198423478663433323e-02 3.205128478192965490e-03
9.817476140447331545e+02 7.711078690056714924e-02 3.575927116846665168e-03
9.817993118181666432e+02 8.373986264358933285e-02 3.726374979289081429e-03
9.818479528341999867e+02 9.524846583609174189e-02 3.975594151490797167e-03
9.818952010907441945e+02 1.033833207349693223e-01 4.138645070882455979e-03
9.819458986758221499e+02 1.111495289027297495e-01 4.294080927033001177e-03
9.819946056439329141e+02 1.351330027989933735e-01 4.739321322678752973e-03
9.820480555290220082e+02 1.485197745078764286e-01 4.970024753146348208e-03
9.820943713911113946e+02 1.781131102782225195e-01 5.447622875907664163e-03
9.821502920186110259e+02 2.334356114273271054e-01 6.247760898767925307e-03
9.821962801483888370e+02 3.141638051024355782e-01 7.264995424785965737e-03
9.822480619757002387e+02 4.630475640379906888e-01 8.855770409982538158e-03
9.822941482016669852e+02 6.853024603326522968e-01 1.085051303051225505e-02
9.823441631023224545e+02 9.189110343809715475e-01 1.262578763205055368e-02
9.823966965392664861e+02 1.173458320239872954e+00 1.436504881665558175e-02
9.824460991706440609e+02 1.454550144298931924e+00 1.612488179763166274e-02
9.824961612969780163e+02 1.723661005075775909e+00 1.767137255773569213e-02
9.825465741227443459e+02 1.931579169436350218e+00 1.887366440107549406e-02
9.825970080294559921e+02 2.146756959601816561e+00 1.998475336086931453e-02
9.826468324234667762e+02 2.315368936438662040e+00 2.083973757828803258e-02
9.826951092544446738e+02 2.450631296803335690e+00 2.162948629369108866e-02
9.827451276861776250e+02 2.536149745314931980e+00 2.204764190343700900e-02
9.827949330288334977e+02 2.651810626550696437e+00 2.262541518887641045e-02
9.828475670236443875e+02 2.795415185133816482e+00 2.330888932530709654e-02
9.828985582029333727e+02 2.818758255215819020e+00 2.341335783383090285e-02
9.829491624136885548e+02 2.912427309307121348e+00 2.389805874873197900e-02
9.829981030390113119e+02 2.942670344440546426e+00 2.405649074114324035e-02
9.830441010332443739e+02 2.971461297173945137e+00 2.424249365149281493e-02
9.830958442653335396e+02 3.091405842356661715e+00 2.479320801046092787e-02
9.831482027606889460e+02 3.103065824785913751e+00 2.488032107746331392e-02
9.831991977491891248e+02 3.162887561784015755e+00 2.511494097759736296e-02
9.832458111750999024e+02 3.134628926313405728e+00 2.506660587052655931e-02
9.832987852706553440e+02 3.242548353209194989e+00 2.549869900915461077e-02
9.833480476704996818e+02 3.160468105559283813e+00 2.519041094643317477e-02
9.833923044596331238e+02 3.225054811617927175e+00 2.548435396655606908e-02
9.834493048874444412e+02 3.241704176421788208e+00 2.548418220947087226e-02
9.834979535080441337e+02 3.286948381516824114e+00 2.571147511213200260e-02
